t,omega
0.000000,1.000000
0.030000,1.000001
0.060000,1.000002
0.085000,1.000002
0.110000,1.000003
0.135000,1.000004
0.170000,1.000005
0.195000,1.000005
0.240000,1.000007
0.275000,1.000008
0.300000,1.000009
0.325000,1.000010
0.350000,1.000011
0.375000,1.000012
0.400000,1.000013
0.425000,1.000014
0.450000,1.000016
0.480000,1.000017
0.510000,1.000018
0.540000,1.000020
0.580000,1.000021
0.630000,1.000023
0.680000,1.000025
0.730000,1.000027
0.780000,1.000029
0.830000,1.000031
0.880000,1.000033
0.930000,1.000034
0.980000,1.000035
1.030000,1.000037
1.080000,1.000038
1.130000,1.000040
1.180000,1.000041
1.230000,1.000042
1.280000,1.000044
1.330000,1.000045
1.380000,1.000047
1.430000,1.000049
1.480000,1.000050
1.530000,1.000052
1.580000,1.000053
1.630000,1.000055
1.680000,1.000056
1.730000,1.000057
1.780000,1.000059
1.830000,1.000060
1.880000,1.000061
1.930000,1.000062
1.980000,1.000063
2.030000,1.000065
2.080000,1.000066
2.130000,1.000067
2.180000,1.000068
2.230000,1.000069
2.280000,1.000070
2.330000,1.000072
2.380000,1.000073
2.430000,1.000074
2.480000,1.000075
2.530000,1.000076
2.580000,1.000077
2.630000,1.000078
2.680000,1.000079
2.730000,1.000080
2.780000,1.000081
2.830000,1.000082
2.880000,1.000083
2.930000,1.000084
2.980000,1.000085
3.030000,1.000085
3.080000,1.000086
3.130000,1.000087
3.180000,1.000088
3.230000,1.000089
3.280000,1.000090
3.330000,1.000091
3.380000,1.000091
3.430000,1.000092
3.480000,1.000093
3.530000,1.000094
3.580000,1.000094
3.630000,1.000095
3.680000,1.000096
3.730000,1.000096
3.780000,1.000097
3.830000,1.000097
3.880000,1.000098
3.930000,1.000099
3.980000,1.000099
4.030000,1.000100
4.080000,1.000101
4.130000,1.000101
4.180000,1.000102
4.230000,1.000102
4.280000,1.000103
4.330000,1.000103
4.380000,1.000104
4.430000,1.000104
4.480000,1.000105
4.530000,1.000105
4.580000,1.000105
4.630000,1.000106
4.680000,1.000106
4.730000,1.000107
4.780000,1.000107
4.830000,1.000107
4.880000,1.000108
4.930000,1.000108
4.980000,1.000108
5.015000,1.000386
5.040000,1.000880
5.065000,1.001398
5.090000,1.001943
5.115000,1.002510
5.140000,1.003107
5.165000,1.003744
5.190000,1.004417
5.208750,1.004712
5.221250,1.004735
5.240000,1.004804
5.258750,1.004917
5.283750,1.005138
5.308750,1.005434
5.333750,1.005800
5.358750,1.006229
5.383750,1.006712
5.408750,1.007242
5.433750,1.007813
5.458750,1.008416
5.483750,1.009048
5.508750,1.009701
5.533750,1.010370
5.563750,1.011188
5.593750,1.012015
5.623750,1.012841
5.658750,1.013797
5.683750,1.014466
5.728750,1.015629
5.753750,1.016242
5.778750,1.016825
5.813750,1.017578
5.838750,1.014024
5.863750,1.014357
5.888750,1.014644
5.918750,1.014926
5.943750,1.015112
5.973750,1.015282
6.003750,1.015402
6.038750,1.015496
6.078750,1.015569
6.118750,1.015648
6.158750,1.015777
6.188750,1.015936
6.213750,1.016125
6.238750,1.016378
6.263750,1.016704
6.288750,1.017101
6.313750,1.017554
6.338750,1.018047
6.363750,1.018572
6.388750,1.019123
6.413750,1.019694
6.438750,1.020281
6.468750,1.020997
6.498750,1.021721
6.528750,1.022452
6.558750,1.023188
6.598750,1.024176
6.628750,1.024920
6.658750,1.025664
6.683750,1.026280
6.708750,1.026881
6.733750,1.027468
6.783750,1.028624
6.833750,1.029755
6.873750,1.030632
6.913750,1.031480
6.963750,1.032496
7.008750,1.033367
7.053750,1.034200
7.083750,1.034734
7.108750,1.035155
7.138750,1.035640
7.163750,1.036033
7.188750,1.036409
7.213750,1.036769
7.243750,1.037191
7.283750,1.037745
7.313750,1.038156
7.348750,1.038631
7.373750,1.038958
7.398750,1.039272
7.428750,1.039649
7.453750,1.039958
7.478750,1.040269
7.503750,1.040579
7.528750,1.040878
7.558750,1.041240
7.583750,1.041542
7.613750,1.041905
7.638750,1.042202
7.663750,1.042483
7.693750,1.042817
7.743750,1.043363
7.793750,1.043887
7.833750,1.044285
7.883750,1.044751
7.933750,1.045182
7.968750,1.045463
7.993750,1.045653
8.018750,1.045836
8.048750,1.046047
8.078750,1.046248
8.108750,1.046441
8.148750,1.046688
8.193750,1.046955
8.243750,1.047244
8.268828,1.047355
8.283672,1.047409
8.313672,1.047429
8.338672,1.047397
8.368672,1.047345
8.393672,1.047240
8.428672,1.046964
8.463672,1.046697
8.498672,1.046430
8.523672,1.046234
8.563672,1.045905
8.613672,1.045458
8.653672,1.045066
8.678672,1.044805
8.718672,1.044358
8.758672,1.043877
8.803672,1.043295
8.843672,1.042744
8.893672,1.042018
8.938672,1.041334
8.963672,1.040944
9.013672,1.040150
9.048672,1.039586
9.078672,1.039100
9.128672,1.038290
9.178672,1.037485
9.218672,1.036848
9.253672,1.036298
9.293672,1.035678
9.333672,1.035067
9.383672,1.034317
9.433672,1.033580
9.483672,1.032855
9.518672,1.032352
9.558672,1.031780
9.593672,1.031282
9.638672,1.030641
9.683672,1.030000
9.718672,1.029498
9.758672,1.028922
9.808672,1.028197
9.858672,1.027465
9.903672,1.026802
9.943672,1.026210
9.973672,1.025765
10.008672,1.025246
10.053672,1.024581
10.103672,1.023847
10.133672,1.023410
10.173672,1.022832
10.208672,1.022333
10.258672,1.021630
10.303672,1.021008
10.353672,1.020327
10.403672,1.019657
10.453672,1.018995
10.503672,1.018339
10.548672,1.017752
10.588672,1.017231
10.623672,1.016776
10.653672,1.016389
10.703672,1.015751
10.728672,1.015435
10.773672,1.014867
10.813672,1.014362
10.853672,1.013859
10.888672,1.013420
10.918672,1.013046
10.963672,1.012488
10.998672,1.012057
11.043672,1.011510
11.078672,1.011090
11.118672,1.010617
11.158672,1.010151
11.203672,1.009635
11.253672,1.009072
11.303672,1.008520
11.353672,1.007978
11.403672,1.007443
11.453672,1.006915
11.503672,1.006392
11.548672,1.005924
11.598672,1.005408
11.648672,1.004894
11.698672,1.004382
11.748672,1.003875
11.798672,1.003371
11.848672,1.002872
11.893672,1.002429
11.943672,1.001943
11.993672,1.001466
12.043672,1.000998
12.093672,1.000539
12.138672,1.000134
12.188672,0.999693
12.233672,0.999303
12.278672,0.998920
12.328672,0.998501
12.378672,0.998088
12.428672,0.997681
12.478672,0.997278
12.528672,0.996879
12.578672,0.996485
12.628672,0.996094
12.678672,0.995708
12.728672,0.995326
12.778672,0.994950
12.828672,0.994580
12.878672,0.994216
12.928672,0.993859
12.978672,0.993509
13.028672,0.993166
13.078672,0.992831
13.128672,0.992502
13.178672,0.992180
13.228672,0.991864
13.278672,0.991554
13.328672,0.991249
13.378672,0.990948
13.428672,0.990652
13.478672,0.990361
13.528672,0.990074
13.578672,0.989791
13.628672,0.989513
13.678672,0.989240
13.728672,0.988973
13.778672,0.988711
13.828672,0.988455
13.878672,0.988205
13.928672,0.987961
13.978672,0.987723
14.028672,0.987491
14.078672,0.987265
14.128672,0.987044
14.178672,0.986829
14.228672,0.986619
14.278672,0.986413
14.328672,0.986212
14.378672,0.986016
14.428672,0.985824
14.478672,0.985636
14.528672,0.985452
14.578672,0.985273
14.628672,0.985099
14.678672,0.984929
14.728672,0.984765
14.778672,0.984605
14.828672,0.984450
14.878672,0.984301
14.928672,0.984157
14.978672,0.984017
15.028672,0.983883
15.078672,0.983753
15.128672,0.983628
15.178672,0.983508
15.228672,0.983391
15.278672,0.983279
15.328672,0.983170
15.378672,0.983065
15.428672,0.982964
15.478672,0.982867
15.528672,0.982774
15.578672,0.982684
15.628672,0.982599
15.678672,0.982518
15.728672,0.982441
15.778672,0.982368
15.828672,0.982300
15.878672,0.982235
15.928672,0.982175
15.978672,0.982119
16.028672,0.982066
16.078672,0.982018
16.128672,0.981973
16.178672,0.981931
16.228672,0.981892
16.278672,0.981857
16.328672,0.981825
16.378672,0.981796
16.428672,0.981770
16.478672,0.981747
16.528672,0.981727
16.578672,0.981711
16.628672,0.981698
16.678672,0.981688
16.728672,0.981682
16.778672,0.981679
16.828672,0.981679
16.878672,0.981683
16.928672,0.981689
16.978672,0.981698
17.028672,0.981710
17.078672,0.981725
17.128672,0.981743
17.178672,0.981763
17.228672,0.981785
17.278672,0.981810
17.328672,0.981837
17.378672,0.981867
17.428672,0.981899
17.478672,0.981933
17.528672,0.981970
17.578672,0.982009
17.628672,0.982051
17.678672,0.982095
17.728672,0.982142
17.778672,0.982191
17.828672,0.982242
17.878672,0.982295
17.928672,0.982351
17.978672,0.982408
18.028672,0.982468
18.078672,0.982529
18.128672,0.982592
18.178672,0.982657
18.228672,0.982723
18.278672,0.982791
18.328672,0.982861
18.378672,0.982932
18.428672,0.983006
18.478672,0.983080
18.528672,0.983157
18.578672,0.983235
18.628672,0.983315
18.678672,0.983396
18.728672,0.983479
18.778672,0.983563
18.828672,0.983649
18.878672,0.983736
18.928672,0.983824
18.978672,0.983914
19.028672,0.984005
19.078672,0.984096
19.128672,0.984189
19.178672,0.984283
19.228672,0.984378
19.278672,0.984474
19.328672,0.984571
19.378672,0.984669
19.428672,0.984767
19.478672,0.984867
19.528672,0.984968
19.578672,0.985070
19.628672,0.985173
19.678672,0.985276
19.728672,0.985380
19.778672,0.985486
19.828672,0.985591
19.878672,0.985698
19.928672,0.985805
19.978672,0.985912
20.028672,0.986020
20.078672,0.986129
20.128672,0.986238
20.178672,0.986347
20.228672,0.986457
20.278672,0.986567
20.328672,0.986678
20.378672,0.986789
20.428672,0.986901
20.478672,0.987013
20.528672,0.987125
20.578672,0.987238
20.628672,0.987351
20.678672,0.987464
20.728672,0.987577
20.778672,0.987691
20.828672,0.987805
20.878672,0.987919
20.928672,0.988033
20.978672,0.988146
21.028672,0.988260
21.078672,0.988374
21.128672,0.988488
21.178672,0.988602
21.228672,0.988716
21.278672,0.988830
21.328672,0.988944
21.378672,0.989058
21.428672,0.989172
21.478672,0.989285
21.528672,0.989399
21.578672,0.989512
21.628672,0.989626
21.678672,0.989739
21.728672,0.989852
21.778672,0.989964
21.828672,0.990077
21.878672,0.990189
21.928672,0.990300
21.978672,0.990412
22.028672,0.990523
22.078672,0.990633
22.128672,0.990744
22.178672,0.990854
22.228672,0.990963
22.278672,0.991072
22.328672,0.991181
22.378672,0.991290
22.428672,0.991398
22.478672,0.991506
22.528672,0.991613
22.578672,0.991719
22.628672,0.991826
22.678672,0.991931
22.728672,0.992037
22.778672,0.992141
22.828672,0.992245
22.878672,0.992349
22.928672,0.992452
22.978672,0.992554
23.028672,0.992656
23.078672,0.992757
23.128672,0.992858
23.178672,0.992958
23.228672,0.993057
23.278672,0.993156
23.328672,0.993254
23.378672,0.993352
23.428672,0.993448
23.478672,0.993545
23.528672,0.993640
23.578672,0.993735
23.628672,0.993829
23.678672,0.993923
23.728672,0.994016
23.778672,0.994108
23.828672,0.994199
23.878672,0.994290
23.928672,0.994380
23.978672,0.994469
24.028672,0.994557
24.078672,0.994645
24.128672,0.994732
24.178672,0.994818
24.228672,0.994904
24.278672,0.994988
24.328672,0.995072
24.378672,0.995155
24.428672,0.995238
24.478672,0.995320
24.528672,0.995400
24.578672,0.995481
24.628672,0.995560
24.678672,0.995638
24.728672,0.995716
24.778672,0.995793
24.828672,0.995869
24.878672,0.995944
24.928672,0.996019
24.978672,0.996092
25.028672,0.996165
25.078672,0.996237
25.128672,0.996309
25.178672,0.996379
25.228672,0.996449
25.278672,0.996518
25.328672,0.996586
25.378672,0.996653
25.428672,0.996720
25.478672,0.996785
25.528672,0.996850
25.578672,0.996914
25.628672,0.996977
25.678672,0.997040
25.728672,0.997101
25.778672,0.997162
25.828672,0.997222
25.878672,0.997281
25.928672,0.997339
25.978672,0.997397
26.028672,0.997453
26.078672,0.997509
26.128672,0.997564
26.178672,0.997619
26.228672,0.997672
26.278672,0.997725
26.328672,0.997777
26.378672,0.997828
26.428672,0.997879
26.478672,0.997928
26.528672,0.997977
26.578672,0.998025
26.628672,0.998072
26.678672,0.998119
26.728672,0.998164
26.778672,0.998209
26.828672,0.998253
26.878672,0.998297
26.928672,0.998339
26.978672,0.998381
27.028672,0.998422
27.078672,0.998463
27.128672,0.998502
27.178672,0.998541
27.228672,0.998579
27.278672,0.998617
27.328672,0.998653
27.378672,0.998689
27.428672,0.998724
27.478672,0.998759
27.528672,0.998793
27.578672,0.998826
27.628672,0.998858
27.678672,0.998890
27.728672,0.998921
27.778672,0.998951
27.828672,0.998981
27.878672,0.999009
27.928672,0.999038
27.978672,0.999065
28.028672,0.999092
28.078672,0.999118
28.128672,0.999144
28.178672,0.999169
28.228672,0.999193
28.278672,0.999217
28.328672,0.999240
28.378672,0.999262
28.428672,0.999284
28.478672,0.999305
28.528672,0.999325
28.578672,0.999345
28.628672,0.999365
28.678672,0.999383
28.728672,0.999401
28.778672,0.999419
28.828672,0.999436
28.878672,0.999452
28.928672,0.999468
28.978672,0.999483
29.028672,0.999497
29.078672,0.999512
29.128672,0.999525
29.178672,0.999538
29.228672,0.999550
29.278672,0.999562
29.328672,0.999574
29.378672,0.999584
29.428672,0.999595
29.478672,0.999605
29.528672,0.999614
29.578672,0.999623
29.628672,0.999631
29.678672,0.999639
29.728672,0.999646
29.778672,0.999653
29.828672,0.999659
29.878672,0.999665
29.928672,0.999671
29.978672,0.999676
30.028672,0.999680
30.078672,0.999684
30.128672,0.999688
30.178672,0.999691
30.228672,0.999694
30.278672,0.999696
30.328672,0.999698
30.378672,0.999700
30.428672,0.999701
30.478672,0.999702
30.528672,0.999702
30.578672,0.999702
30.628672,0.999702
30.678672,0.999701
30.728672,0.999700
30.778672,0.999698
30.828672,0.999696
30.878672,0.999694
30.928672,0.999691
30.978672,0.999689
31.028672,0.999685
31.078672,0.999682
31.128672,0.999678
31.178672,0.999674
31.228672,0.999669
31.278672,0.999664
31.328672,0.999659
31.378672,0.999654
31.428672,0.999648
31.478672,0.999642
31.528672,0.999636
31.578672,0.999629
31.628672,0.999622
31.678672,0.999615
31.728672,0.999608
31.778672,0.999600
31.828672,0.999592
31.878672,0.999584
31.928672,0.999576
31.978672,0.999567
32.028672,0.999558
32.078672,0.999549
32.128672,0.999540
32.178672,0.999530
32.228672,0.999521
32.278672,0.999511
32.328672,0.999501
32.378672,0.999490
32.428672,0.999480
32.478672,0.999469
32.528672,0.999458
32.578672,0.999447
32.628672,0.999436
32.678672,0.999424
32.728672,0.999413
32.778672,0.999401
32.828672,0.999389
32.878672,0.999377
32.928672,0.999365
32.978672,0.999353
33.028672,0.999340
33.078672,0.999328
33.128672,0.999315
33.178672,0.999302
33.228672,0.999289
33.278672,0.999276
33.328672,0.999263
33.378672,0.999250
33.428672,0.999236
33.478672,0.999223
33.528672,0.999209
33.578672,0.999196
33.628672,0.999182
33.678672,0.999168
33.728672,0.999154
33.778672,0.999140
33.828672,0.999126
33.878672,0.999112
33.928672,0.999098
33.978672,0.999083
34.028672,0.999069
34.078672,0.999055
34.128672,0.999040
34.178672,0.999026
34.228672,0.999011
34.278672,0.998996
34.328672,0.998982
34.378672,0.998967
34.428672,0.998952
34.478672,0.998938
34.528672,0.998923
34.578672,0.998908
34.628672,0.998893
34.678672,0.998879
34.728672,0.998864
34.778672,0.998849
34.828672,0.998834
34.878672,0.998819
34.928672,0.998805
34.978672,0.998790
35.028672,0.998775
35.078672,0.998760
35.128672,0.998745
35.178672,0.998730
35.228672,0.998716
35.278672,0.998701
35.328672,0.998686
35.378672,0.998671
35.428672,0.998657
35.478672,0.998642
35.528672,0.998627
35.578672,0.998613
35.628672,0.998598
35.678672,0.998583
35.728672,0.998569
35.778672,0.998554
35.828672,0.998540
35.878672,0.998525
35.928672,0.998511
35.978672,0.998497
36.028672,0.998483
36.078672,0.998468
36.128672,0.998454
36.178672,0.998440
36.228672,0.998426
36.278672,0.998412
36.328672,0.998398
36.378672,0.998384
36.428672,0.998370
36.478672,0.998357
36.528672,0.998343
36.578672,0.998329
36.628672,0.998316
36.678672,0.998302
36.728672,0.998289
36.778672,0.998276
36.828672,0.998262
36.878672,0.998249
36.928672,0.998236
36.978672,0.998223
37.028672,0.998210
37.078672,0.998197
37.128672,0.998185
37.178672,0.998172
37.228672,0.998159
37.278672,0.998147
37.328672,0.998134
37.378672,0.998122
37.428672,0.998110
37.478672,0.998098
37.528672,0.998086
37.578672,0.998074
37.628672,0.998062
37.678672,0.998050
37.728672,0.998038
37.778672,0.998027
37.828672,0.998015
37.878672,0.998004
37.928672,0.997993
37.978672,0.997981
38.028672,0.997970
38.078672,0.997959
38.128672,0.997948
38.178672,0.997938
38.228672,0.997927
38.278672,0.997916
38.328672,0.997906
38.378672,0.997895
38.428672,0.997885
38.478672,0.997875
38.528672,0.997865
38.578672,0.997855
38.628672,0.997845
38.678672,0.997835
38.728672,0.997826
38.778672,0.997816
38.828672,0.997807
38.878672,0.997797
38.928672,0.997788
38.978672,0.997779
39.028672,0.997770
39.078672,0.997761
39.128672,0.997752
39.178672,0.997743
39.228672,0.997735
39.278672,0.997726
39.328672,0.997718
39.378672,0.997710
39.428672,0.997701
39.478672,0.997693
39.528672,0.997685
39.578672,0.997677
39.628672,0.997670
39.678672,0.997662
39.728672,0.997655
39.778672,0.997647
39.828672,0.997640
39.878672,0.997633
39.928672,0.997625
39.978672,0.997618
40.028672,0.997611
40.078672,0.997605
40.128672,0.997598
40.178672,0.997591
40.228672,0.997585
40.278672,0.997579
40.328672,0.997572
40.378672,0.997566
40.428672,0.997560
40.478672,0.997554
40.528672,0.997548
40.578672,0.997542
40.628672,0.997537
40.678672,0.997531
40.728672,0.997526
40.778672,0.997520
40.828672,0.997515
40.878672,0.997510
40.928672,0.997505
40.978672,0.997500
41.028672,0.997495
41.078672,0.997490
41.128672,0.997485
41.178672,0.997481
41.228672,0.997476
41.278672,0.997472
41.328672,0.997468
41.378672,0.997463
41.428672,0.997459
41.478672,0.997455
41.528672,0.997451
41.578672,0.997447
41.628672,0.997444
41.678672,0.997440
41.728672,0.997436
41.778672,0.997433
41.828672,0.997430
41.878672,0.997426
41.928672,0.997423
41.978672,0.997420
42.028672,0.997417
42.078672,0.997414
42.128672,0.997411
42.178672,0.997408
42.228672,0.997405
42.278672,0.997403
42.328672,0.997400
42.378672,0.997398
42.428672,0.997395
42.478672,0.997393
42.528672,0.997391
42.578672,0.997389
42.628672,0.997387
42.678672,0.997384
42.728672,0.997383
42.778672,0.997381
42.828672,0.997379
42.878672,0.997377
42.928672,0.997376
42.978672,0.997374
43.028672,0.997372
43.078672,0.997371
43.128672,0.997370
43.178672,0.997368
43.228672,0.997367
43.278672,0.997366
43.328672,0.997365
43.378672,0.997364
43.428672,0.997363
43.478672,0.997362
43.528672,0.997361
43.578672,0.997360
43.628672,0.997360
43.678672,0.997359
43.728672,0.997358
43.778672,0.997358
43.828672,0.997357
43.878672,0.997357
43.928672,0.997357
43.978672,0.997356
44.028672,0.997356
44.078672,0.997356
44.128672,0.997356
44.178672,0.997356
44.228672,0.997356
44.278672,0.997356
44.328672,0.997356
44.378672,0.997356
44.428672,0.997356
44.478672,0.997356
44.528672,0.997357
44.578672,0.997357
44.628672,0.997357
44.678672,0.997358
44.728672,0.997358
44.778672,0.997359
44.828672,0.997359
44.878672,0.997360
44.928672,0.997360
44.978672,0.997361
45.028672,0.997362
45.078672,0.997363
45.128672,0.997363
45.178672,0.997364
45.228672,0.997365
45.278672,0.997366
45.328672,0.997367
45.378672,0.997368
45.428672,0.997369
45.478672,0.997370
45.528672,0.997371
45.578672,0.997372
45.628672,0.997373
45.678672,0.997374
45.728672,0.997376
45.778672,0.997377
45.828672,0.997378
45.878672,0.997379
45.928672,0.997381
45.978672,0.997382
46.028672,0.997384
46.078672,0.997385
46.128672,0.997386
46.178672,0.997388
46.228672,0.997389
46.278672,0.997391
46.328672,0.997392
46.378672,0.997394
46.428672,0.997395
46.478672,0.997397
46.528672,0.997399
46.578672,0.997400
46.628672,0.997402
46.678672,0.997404
46.728672,0.997405
46.778672,0.997407
46.828672,0.997409
46.878672,0.997411
46.928672,0.997412
46.978672,0.997414
47.028672,0.997416
47.078672,0.997418
47.128672,0.997419
47.178672,0.997421
